microns         flux
4.000000e-03	6.682393e+00	
4.047701e-03	7.234826e+00	
4.095401e-03	7.973635e+00	
4.143102e-03	8.890312e+00	
4.190802e-03	9.974835e+00	
4.238503e-03	1.121464e+01	
4.286203e-03	1.260500e+01	
4.333904e-03	1.415164e+01	
4.381604e-03	1.585806e+01	
4.429305e-03	1.773011e+01	
4.477005e-03	1.977232e+01	
4.524705e-03	2.200203e+01	
4.572406e-03	2.442467e+01	
4.620106e-03	2.705752e+01	
4.667807e-03	2.990957e+01	
4.715507e-03	3.299581e+01	
4.763208e-03	3.632825e+01	
4.810908e-03	3.991808e+01	
4.858609e-03	4.377976e+01	
4.906309e-03	4.792843e+01	
4.954010e-03	5.237430e+01	
5.001710e-03	5.713372e+01	
5.049411e-03	6.221687e+01	
5.097111e-03	6.764067e+01	
5.144812e-03	7.341369e+01	
5.192512e-03	7.955323e+01	
5.240213e-03	8.606710e+01	
5.287913e-03	9.297293e+01	
5.335614e-03	1.002993e+02	
5.383314e-03	1.080740e+02	
5.431015e-03	1.162892e+02	
5.478715e-03	1.249401e+02	
5.526416e-03	1.340519e+02	
5.574116e-03	1.436272e+02	
5.621816e-03	1.536826e+02	
5.669517e-03	1.642133e+02	
5.717217e-03	1.753202e+02	
5.764918e-03	1.869828e+02	
5.812618e-03	1.991582e+02	
5.860319e-03	2.118726e+02	
5.908019e-03	2.251101e+02	
5.955719e-03	2.388983e+02	
6.003420e-03	2.534005e+02	
6.051121e-03	2.684733e+02	
6.098821e-03	2.841162e+02	
6.146521e-03	3.003231e+02	
6.194222e-03	3.171515e+02	
6.241923e-03	3.347586e+02	
6.289623e-03	3.529393e+02	
6.337323e-03	3.717173e+02	
6.385024e-03	3.910795e+02	
6.432725e-03	4.113298e+02	
6.480425e-03	4.321825e+02	
6.528125e-03	4.536247e+02	
6.575826e-03	4.757256e+02	
6.623527e-03	4.987138e+02	
6.671227e-03	5.222987e+02	
6.718927e-03	5.464849e+02	
6.766628e-03	5.714935e+02	
6.814328e-03	5.972682e+02	
6.862029e-03	6.236268e+02	
6.909729e-03	6.506631e+02	
6.957429e-03	6.786422e+02	
7.005130e-03	7.072031e+02	
7.052830e-03	7.363283e+02	
7.100531e-03	7.665189e+02	
7.148232e-03	7.972626e+02	
7.195932e-03	8.285586e+02	
7.243632e-03	8.609247e+02	
7.291333e-03	8.938505e+02	
7.339033e-03	9.273135e+02	
7.386734e-03	9.618655e+02	
7.434434e-03	9.969386e+02	
7.482135e-03	1.032623e+03	
7.529836e-03	1.069309e+03	
7.577536e-03	1.106476e+03	
7.625236e-03	1.144405e+03	
7.672937e-03	1.183158e+03	
7.720637e-03	1.222368e+03	
7.768338e-03	1.262544e+03	
7.816038e-03	1.303310e+03	
7.863739e-03	1.344612e+03	
7.911439e-03	1.386910e+03	
7.959140e-03	1.429593e+03	
8.006840e-03	1.473127e+03	
8.054541e-03	1.517307e+03	
8.102242e-03	1.561959e+03	
8.149941e-03	1.607573e+03	
8.197643e-03	1.653543e+03	
8.245342e-03	1.700384e+03	
8.293043e-03	1.747726e+03	
8.340744e-03	1.795650e+03	
8.388444e-03	1.844364e+03	
8.436144e-03	1.893353e+03	
8.483846e-03	1.943374e+03	
8.531545e-03	1.993641e+03	
8.579246e-03	2.044714e+03	
8.626947e-03	2.096214e+03	
8.674647e-03	2.148302e+03	
8.722348e-03	2.201023e+03	
8.770048e-03	2.254103e+03	
8.817748e-03	2.307956e+03	
8.865450e-03	2.362012e+03	
8.913149e-03	2.416979e+03	
8.960850e-03	2.472072e+03	
9.008551e-03	2.527992e+03	
9.056251e-03	2.584120e+03	
9.103951e-03	2.640928e+03	
9.151652e-03	2.698019e+03	
9.199352e-03	2.755687e+03	
9.247053e-03	2.813705e+03	
9.294753e-03	2.872201e+03	
9.342453e-03	2.931073e+03	
9.390155e-03	2.990367e+03	
9.437854e-03	3.050069e+03	
9.485555e-03	3.110119e+03	
9.533256e-03	3.170571e+03	
9.580957e-03	3.231349e+03	
9.628656e-03	3.292507e+03	
9.676357e-03	3.353968e+03	
9.724058e-03	3.415783e+03	
9.771758e-03	3.477890e+03	
9.819458e-03	3.540305e+03	
9.867160e-03	3.603013e+03	
9.914859e-03	3.665981e+03	
9.962560e-03	3.729261e+03	
1.001026e-02	3.792750e+03	
1.005796e-02	3.856543e+03	
1.010566e-02	3.920476e+03	
1.015336e-02	3.984757e+03	
1.020106e-02	4.049115e+03	
1.024876e-02	4.113811e+03	
1.029646e-02	4.178519e+03	
1.034416e-02	4.243594e+03	
1.039186e-02	4.308670e+03	
1.043957e-02	4.374042e+03	
1.048726e-02	4.439447e+03	
1.053497e-02	4.505048e+03	
1.058267e-02	4.570736e+03	
1.063037e-02	4.636542e+03	
1.067807e-02	4.702460e+03	
1.072577e-02	4.768425e+03	
1.077347e-02	4.834519e+03	
1.082117e-02	4.900616e+03	
1.086887e-02	4.966831e+03	
1.091657e-02	5.033046e+03	
1.096427e-02	5.099334e+03	
1.101197e-02	5.165646e+03	
1.105967e-02	5.231963e+03	
1.110737e-02	5.298283e+03	
1.115507e-02	5.364599e+03	
1.120277e-02	5.430886e+03	
1.125047e-02	5.497171e+03	
1.129817e-02	5.563383e+03	
1.134587e-02	5.629578e+03	
1.139357e-02	5.695714e+03	
1.144127e-02	5.761779e+03	
1.148898e-02	5.827827e+03	
1.153668e-02	5.893689e+03	
1.158438e-02	5.959551e+03	
1.163208e-02	6.025253e+03	
1.167978e-02	6.090876e+03	
1.172748e-02	6.156424e+03	
1.177518e-02	6.221724e+03	
1.182288e-02	6.287022e+03	
1.187058e-02	6.352050e+03	
1.191828e-02	6.417008e+03	
1.196598e-02	6.481830e+03	
1.201368e-02	6.546360e+03	
1.206138e-02	6.610894e+03	
1.210908e-02	6.675051e+03	
1.215678e-02	6.739111e+03	
1.220448e-02	6.803028e+03	
1.225218e-02	6.866565e+03	
1.229988e-02	6.930100e+03	
1.234758e-02	6.993229e+03	
1.239529e-02	7.056183e+03	
1.244298e-02	7.119043e+03	
1.249068e-02	7.181371e+03	
1.253839e-02	7.243700e+03	
1.258609e-02	7.305664e+03	
1.263379e-02	7.367305e+03	
1.268149e-02	7.428948e+03	
1.272919e-02	7.489925e+03	
1.277689e-02	7.550836e+03	
1.282459e-02	7.611572e+03	
1.287229e-02	7.671681e+03	
1.291999e-02	7.731793e+03	
1.296769e-02	7.791439e+03	
1.301539e-02	7.850713e+03	
1.306309e-02	7.909990e+03	
1.311079e-02	7.968531e+03	
1.315849e-02	8.026921e+03	
1.320619e-02	8.085229e+03	
1.325389e-02	8.142678e+03	
1.330159e-02	8.200123e+03	
1.334929e-02	8.257255e+03	
1.339699e-02	8.313726e+03	
1.344470e-02	8.370199e+03	
1.349239e-02	8.426116e+03	
1.354009e-02	8.481550e+03	
1.358780e-02	8.536986e+03	
1.363550e-02	8.591663e+03	
1.368320e-02	8.646022e+03	
1.373090e-02	8.700383e+03	
1.377860e-02	8.753783e+03	
1.382630e-02	8.807018e+03	
1.387400e-02	8.860254e+03	
1.392170e-02	8.912368e+03	
1.396940e-02	8.964436e+03	
1.401710e-02	9.016427e+03	
1.406480e-02	9.067282e+03	
1.411250e-02	9.118140e+03	
1.416020e-02	9.168880e+03	
1.420790e-02	9.218819e+03	
1.425560e-02	9.268375e+03	
1.430330e-02	9.317544e+03	
1.435100e-02	9.365932e+03	
1.439870e-02	9.414320e+03	
1.444640e-02	9.462473e+03	
1.449411e-02	9.509529e+03	
1.454181e-02	9.556585e+03	
1.458951e-02	9.603453e+03	
1.463721e-02	9.649152e+03	
1.468491e-02	9.694851e+03	
1.473261e-02	9.740445e+03	
1.478031e-02	9.784765e+03	
1.482801e-02	9.829082e+03	
1.487571e-02	9.873398e+03	
1.492341e-02	9.916313e+03	
1.497111e-02	9.959220e+03	
1.501881e-02	1.000213e+04	
1.506651e-02	1.004377e+04	
1.511421e-02	1.008522e+04	
1.516191e-02	1.012667e+04	
1.520961e-02	1.016734e+04	
1.525731e-02	1.020762e+04	
1.530501e-02	1.024726e+04	
1.535271e-02	1.028630e+04	
1.540042e-02	1.032482e+04	
1.544812e-02	1.036334e+04	
1.549581e-02	1.040149e+04	
1.554351e-02	1.043888e+04	
1.559122e-02	1.047573e+04	
1.563892e-02	1.051228e+04	
1.568662e-02	1.054776e+04	
1.573432e-02	1.058324e+04	
1.578202e-02	1.061872e+04	
1.582972e-02	1.065325e+04	
1.587742e-02	1.068745e+04	
1.592512e-02	1.072099e+04	
1.597282e-02	1.075415e+04	
1.602052e-02	1.078692e+04	
1.606822e-02	1.081905e+04	
1.611592e-02	1.085091e+04	
1.616362e-02	1.088210e+04	
1.621132e-02	1.091293e+04	
1.625902e-02	1.094335e+04	
1.630672e-02	1.097314e+04	
1.635442e-02	1.100270e+04	
1.640212e-02	1.103152e+04	
1.644982e-02	1.106004e+04	
1.649752e-02	1.108807e+04	
1.654522e-02	1.111558e+04	
1.659293e-02	1.114280e+04	
1.664063e-02	1.116928e+04	
1.668833e-02	1.119556e+04	
1.673603e-02	1.122118e+04	
1.678373e-02	1.124626e+04	
1.683143e-02	1.127069e+04	
1.687913e-02	1.129511e+04	
1.692683e-02	1.131954e+04	
1.697453e-02	1.134246e+04	
1.702223e-02	1.136528e+04	
1.706993e-02	1.138809e+04	
1.711763e-02	1.141044e+04	
1.716533e-02	1.143205e+04	
1.721303e-02	1.145319e+04	
1.726073e-02	1.147401e+04	
1.730843e-02	1.149384e+04	
1.735613e-02	1.151344e+04	
1.740383e-02	1.153304e+04	
1.745153e-02	1.155236e+04	
1.749924e-02	1.157037e+04	
1.754694e-02	1.158839e+04	
1.759464e-02	1.160640e+04	
1.764234e-02	1.162361e+04	
1.769004e-02	1.164004e+04	
1.773774e-02	1.165647e+04	
1.778544e-02	1.167291e+04	
1.783314e-02	1.168838e+04	
1.788084e-02	1.170364e+04	
1.792854e-02	1.171811e+04	
1.797624e-02	1.173247e+04	
1.802394e-02	1.174619e+04	
1.807164e-02	1.175972e+04	
1.811934e-02	1.177260e+04	
1.816704e-02	1.178522e+04	
1.821474e-02	1.179735e+04	
1.826244e-02	1.180912e+04	
1.831014e-02	1.182043e+04	
1.835784e-02	1.183117e+04	
1.840555e-02	1.184138e+04	
1.845324e-02	1.185159e+04	
1.850094e-02	1.186180e+04	
1.854865e-02	1.187124e+04	
1.859635e-02	1.188032e+04	
1.864405e-02	1.188880e+04	
1.869175e-02	1.189707e+04	
1.873945e-02	1.190447e+04	
1.878715e-02	1.191167e+04	
1.883485e-02	1.191888e+04	
1.888255e-02	1.192608e+04	
1.893025e-02	1.193229e+04	
1.897795e-02	1.193837e+04	
1.902565e-02	1.194383e+04	
1.907335e-02	1.194921e+04	
1.912105e-02	1.195390e+04	
1.916875e-02	1.195854e+04	
1.921645e-02	1.196252e+04	
1.926415e-02	1.196644e+04	
1.931185e-02	1.196973e+04	
1.935955e-02	1.197296e+04	
1.940725e-02	1.197550e+04	
1.945495e-02	1.197798e+04	
1.950265e-02	1.197988e+04	
1.955036e-02	1.198169e+04	
1.959806e-02	1.198289e+04	
1.964576e-02	1.198398e+04	
1.969346e-02	1.198427e+04	
1.974116e-02	1.198436e+04	
1.978886e-02	1.198446e+04	
1.983656e-02	1.198455e+04	
1.988426e-02	1.198376e+04	
1.993196e-02	1.198254e+04	
1.997966e-02	1.198132e+04	
2.002736e-02	1.198010e+04	
2.007506e-02	1.197821e+04	
2.012276e-02	1.197571e+04	
2.017046e-02	1.197321e+04	
2.021816e-02	1.197070e+04	
2.026586e-02	1.196781e+04	
2.031356e-02	1.196403e+04	
2.036126e-02	1.196026e+04	
2.040897e-02	1.195649e+04	
2.045667e-02	1.195263e+04	
2.050437e-02	1.194768e+04	
2.055207e-02	1.194273e+04	
2.059977e-02	1.193778e+04	
2.064747e-02	1.193283e+04	
2.069517e-02	1.192717e+04	
2.074287e-02	1.192131e+04	
2.079057e-02	1.191511e+04	
2.083827e-02	1.190869e+04	
2.088597e-02	1.190199e+04	
2.093367e-02	1.189492e+04	
2.098137e-02	1.188771e+04	
2.102907e-02	1.188011e+04	
2.107677e-02	1.187245e+04	
2.112447e-02	1.186402e+04	
2.117217e-02	1.185560e+04	
2.121987e-02	1.184717e+04	
2.126757e-02	1.183874e+04	
2.131527e-02	1.182966e+04	
2.136298e-02	1.182024e+04	
2.141068e-02	1.181082e+04	
2.145837e-02	1.180140e+04	
2.150607e-02	1.179184e+04	
2.155378e-02	1.178164e+04	
2.160148e-02	1.177144e+04	
2.164918e-02	1.176077e+04	
2.169688e-02	1.175007e+04	
2.174458e-02	1.173904e+04	
2.179228e-02	1.172787e+04	
2.183998e-02	1.171648e+04	
2.188768e-02	1.170479e+04	
2.193538e-02	1.169303e+04	
2.198308e-02	1.168090e+04	
2.203078e-02	1.166877e+04	
2.207848e-02	1.165626e+04	
2.212618e-02	1.164369e+04	
2.217388e-02	1.163086e+04	
2.222158e-02	1.161783e+04	
2.226928e-02	1.160469e+04	
2.231698e-02	1.159118e+04	
2.236468e-02	1.157767e+04	
2.241238e-02	1.156366e+04	
2.246008e-02	1.154959e+04	
2.250779e-02	1.153551e+04	
2.255549e-02	1.152144e+04	
2.260319e-02	1.150722e+04	
2.265089e-02	1.149246e+04	
2.269859e-02	1.147771e+04	
2.274629e-02	1.146295e+04	
2.279399e-02	1.144796e+04	
2.284169e-02	1.143262e+04	
2.288939e-02	1.141729e+04	
2.293709e-02	1.140183e+04	
2.298479e-02	1.138604e+04	
2.303249e-02	1.137025e+04	
2.308019e-02	1.135411e+04	
2.312789e-02	1.133781e+04	
2.317559e-02	1.132151e+04	
2.322329e-02	1.130521e+04	
2.327099e-02	1.128891e+04	
2.331869e-02	1.127223e+04	
2.336639e-02	1.125547e+04	
2.341410e-02	1.123857e+04	
2.346180e-02	1.122147e+04	
2.350949e-02	1.120437e+04	
2.355720e-02	1.118682e+04	
2.360490e-02	1.116926e+04	
2.365260e-02	1.115171e+04	
2.370030e-02	1.113415e+04	
2.374800e-02	1.111657e+04	
2.379570e-02	1.109848e+04	
2.384340e-02	1.108038e+04	
2.389110e-02	1.106229e+04	
2.393880e-02	1.104420e+04	
2.398650e-02	1.102607e+04	
2.403420e-02	1.100749e+04	
2.408190e-02	1.098890e+04	
2.412960e-02	1.097032e+04	
2.417730e-02	1.095174e+04	
2.422500e-02	1.093313e+04	
2.427270e-02	1.091412e+04	
2.432040e-02	1.089510e+04	
2.436811e-02	1.087609e+04	
2.441580e-02	1.085707e+04	
2.446350e-02	1.083806e+04	
2.451121e-02	1.081873e+04	
2.455891e-02	1.079939e+04	
2.460661e-02	1.077998e+04	
2.465431e-02	1.076044e+04	
2.470201e-02	1.074090e+04	
2.474971e-02	1.072120e+04	
2.479741e-02	1.070146e+04	
2.484511e-02	1.068167e+04	
2.489281e-02	1.066173e+04	
2.494051e-02	1.064179e+04	
2.498821e-02	1.062172e+04	
2.503591e-02	1.060157e+04	
2.508361e-02	1.058143e+04	
2.513131e-02	1.056129e+04	
2.517901e-02	1.054114e+04	
2.522671e-02	1.052092e+04	
2.527441e-02	1.050057e+04	
2.532211e-02	1.048023e+04	
2.536981e-02	1.045979e+04	
2.541751e-02	1.043932e+04	
2.546521e-02	1.041884e+04	
2.551292e-02	1.039821e+04	
2.556062e-02	1.037759e+04	
2.560832e-02	1.035691e+04	
2.565602e-02	1.033618e+04	
2.570372e-02	1.031545e+04	
2.575142e-02	1.029463e+04	
2.579912e-02	1.027379e+04	
2.584682e-02	1.025294e+04	
2.589452e-02	1.023210e+04	
2.594222e-02	1.021125e+04	
2.598992e-02	1.019036e+04	
2.603762e-02	1.016942e+04	
2.608532e-02	1.014848e+04	
2.613302e-02	1.012748e+04	
2.618072e-02	1.010646e+04	
2.622842e-02	1.008543e+04	
2.627612e-02	1.006433e+04	
2.632383e-02	1.004323e+04	
2.637152e-02	1.002212e+04	
2.641922e-02	1.000096e+04	
2.646692e-02	9.979811e+03	
2.651463e-02	9.958634e+03	
2.656233e-02	9.937433e+03	
2.661003e-02	9.916232e+03	
2.665773e-02	9.895031e+03	
2.670543e-02	9.873831e+03	
2.675313e-02	9.852629e+03	
2.680083e-02	9.831415e+03	
2.684853e-02	9.810201e+03	
2.689623e-02	9.788985e+03	
2.694393e-02	9.767771e+03	
2.699163e-02	9.746557e+03	
2.703933e-02	9.725348e+03	
2.708703e-02	9.704152e+03	
2.713473e-02	9.682956e+03	
2.718243e-02	9.661760e+03	
2.723013e-02	9.640563e+03	
2.727783e-02	9.619368e+03	
2.732553e-02	9.598182e+03	
2.737324e-02	9.576998e+03	
2.742094e-02	9.555816e+03	
2.746864e-02	9.534634e+03	
2.751634e-02	9.513452e+03	
2.756404e-02	9.492271e+03	
2.761174e-02	9.471142e+03	
2.765944e-02	9.450018e+03	
2.770714e-02	9.428893e+03	
2.775484e-02	9.407769e+03	
2.780254e-02	9.386644e+03	
2.785024e-02	9.365536e+03	
2.789794e-02	9.344545e+03	
2.794564e-02	9.323553e+03	
2.799334e-02	9.302562e+03	
2.804104e-02	9.281570e+03	
2.808874e-02	9.260578e+03	
2.813644e-02	9.239617e+03	
2.818414e-02	9.218721e+03	
2.823184e-02	9.197825e+03	
2.827954e-02	9.176946e+03	
2.832724e-02	9.156097e+03	
2.837494e-02	9.135249e+03	
2.842264e-02	9.114456e+03	
2.847034e-02	9.093743e+03	
2.851805e-02	9.073031e+03	
2.856575e-02	9.052317e+03	
2.861345e-02	9.031604e+03	
2.866115e-02	9.010892e+03	
2.870885e-02	8.990266e+03	
2.875655e-02	8.969742e+03	
2.880425e-02	8.949217e+03	
2.885195e-02	8.928693e+03	
2.889965e-02	8.908170e+03	
2.894735e-02	8.887645e+03	
2.899505e-02	8.867222e+03	
2.904275e-02	8.846926e+03	
2.909045e-02	8.826631e+03	
2.913815e-02	8.806335e+03	
2.918585e-02	8.786038e+03	
2.923355e-02	8.765743e+03	
2.928125e-02	8.745514e+03	
2.932895e-02	8.725402e+03	
2.937665e-02	8.705290e+03	
2.942435e-02	8.685207e+03	
2.947205e-02	8.665191e+03	
2.951976e-02	8.645176e+03	
2.956746e-02	8.625208e+03	
2.961516e-02	8.605409e+03	
2.966286e-02	8.585610e+03	
2.971056e-02	8.565812e+03	
2.975826e-02	8.546014e+03	
2.980596e-02	8.526215e+03	
2.985366e-02	8.506425e+03	
2.990136e-02	8.486846e+03	
2.994906e-02	8.467267e+03	
2.999676e-02	8.447688e+03	
3.004446e-02	8.428223e+03	
3.009216e-02	8.408772e+03	
3.013986e-02	8.389323e+03	
3.018756e-02	8.370051e+03	
3.023526e-02	8.350835e+03	
3.028296e-02	8.331618e+03	
3.033066e-02	8.312401e+03	
3.037837e-02	8.293185e+03	
3.042607e-02	8.273968e+03	
3.047377e-02	8.254899e+03	
3.052147e-02	8.236011e+03	
3.056917e-02	8.217120e+03	
3.061687e-02	8.198230e+03	
3.066457e-02	8.179341e+03	
3.071227e-02	8.160451e+03	
3.075997e-02	8.141578e+03	
3.080767e-02	8.122948e+03	
3.085537e-02	8.104319e+03	
3.090307e-02	8.085690e+03	
3.095077e-02	8.067203e+03	
3.099847e-02	8.048745e+03	
3.104617e-02	8.030287e+03	
3.109387e-02	8.011940e+03	
3.114157e-02	7.993661e+03	
3.118927e-02	7.975381e+03	
3.123697e-02	7.957161e+03	
3.128467e-02	7.939051e+03	
3.133237e-02	7.920939e+03	
3.138007e-02	7.902849e+03	
3.142777e-02	7.884921e+03	
3.147547e-02	7.866996e+03	
3.152318e-02	7.849067e+03	
3.157088e-02	7.831289e+03	
3.161858e-02	7.813546e+03	
3.166628e-02	7.795802e+03	
3.171398e-02	7.778162e+03	
3.176168e-02	7.760617e+03	
3.180938e-02	7.743069e+03	
3.185708e-02	7.725563e+03	
3.190478e-02	7.708202e+03	
3.195248e-02	7.690842e+03	
3.200018e-02	7.673480e+03	
3.204788e-02	7.656382e+03	
3.209558e-02	7.639318e+03	
3.214328e-02	7.622255e+03	
3.219098e-02	7.605191e+03	
3.223868e-02	7.588127e+03	
3.228638e-02	7.571064e+03	
3.233408e-02	7.554062e+03	
3.238178e-02	7.537405e+03	
3.242948e-02	7.520749e+03	
3.247719e-02	7.504092e+03	
3.252488e-02	7.487436e+03	
3.257259e-02	7.470779e+03	
3.262028e-02	7.454123e+03	
3.266799e-02	7.437625e+03	
3.271569e-02	7.421368e+03	
3.276339e-02	7.405110e+03	
3.281109e-02	7.388853e+03	
3.285879e-02	7.372595e+03	
3.290649e-02	7.356338e+03	
3.295419e-02	7.340081e+03	
3.300189e-02	7.324040e+03	
3.304959e-02	7.308196e+03	
3.309729e-02	7.292353e+03	
3.314499e-02	7.276508e+03	
3.319269e-02	7.260665e+03	
3.324039e-02	7.244821e+03	
3.328809e-02	7.228978e+03	
3.333579e-02	7.213404e+03	
3.338349e-02	7.197980e+03	
3.343119e-02	7.182556e+03	
3.347890e-02	7.167130e+03	
3.352659e-02	7.151708e+03	
3.357429e-02	7.136283e+03	
3.362200e-02	7.120858e+03	
3.366970e-02	7.105695e+03	
3.371740e-02	7.090688e+03	
3.376510e-02	7.075683e+03	
3.381280e-02	7.060676e+03	
3.386050e-02	7.045671e+03	
3.390820e-02	7.030665e+03	
3.395590e-02	7.015659e+03	
3.400360e-02	7.000908e+03	
3.405130e-02	6.986328e+03	
3.409900e-02	6.971751e+03	
3.414670e-02	6.957171e+03	
3.419440e-02	6.942591e+03	
3.424210e-02	6.928012e+03	
3.428980e-02	6.913432e+03	
3.433750e-02	6.899043e+03	
3.438520e-02	6.884885e+03	
3.443290e-02	6.870728e+03	
3.448061e-02	6.856569e+03	
3.452830e-02	6.842412e+03	
3.457601e-02	6.828253e+03	
3.462371e-02	6.814095e+03	
3.467141e-02	6.800059e+03	
3.471911e-02	6.786333e+03	
3.476681e-02	6.772605e+03	
3.481451e-02	6.758879e+03	
3.486221e-02	6.745152e+03	
3.490991e-02	6.731426e+03	
3.495761e-02	6.717699e+03	
3.500531e-02	6.703973e+03	
3.505301e-02	6.690663e+03	
3.510071e-02	6.677360e+03	
3.514841e-02	6.664056e+03	
3.519611e-02	6.650752e+03	
3.524381e-02	6.637448e+03	
3.529151e-02	6.624146e+03	
3.533921e-02	6.610841e+03	
3.538691e-02	6.597830e+03	
3.543461e-02	6.584949e+03	
3.548231e-02	6.572070e+03	
3.553002e-02	6.559189e+03	
3.557772e-02	6.546309e+03	
3.562542e-02	6.533429e+03	
3.567312e-02	6.520548e+03	
3.572082e-02	6.507764e+03	
3.576852e-02	6.495307e+03	
3.581622e-02	6.482849e+03	
3.586392e-02	6.470392e+03	
3.591162e-02	6.457934e+03	
3.595932e-02	6.445478e+03	
3.600702e-02	6.433020e+03	
3.605472e-02	6.420562e+03	
3.610242e-02	6.408432e+03	
3.615012e-02	6.396392e+03	
3.619782e-02	6.384351e+03	
3.624552e-02	6.372310e+03	
3.629322e-02	6.360271e+03	
3.634093e-02	6.348229e+03	
3.638862e-02	6.336189e+03	
3.643633e-02	6.324230e+03	
3.648403e-02	6.312609e+03	
3.653172e-02	6.300988e+03	
3.657943e-02	6.289366e+03	
3.662712e-02	6.277746e+03	
3.667483e-02	6.266123e+03	
3.672253e-02	6.254502e+03	
3.677023e-02	6.242880e+03	
3.681793e-02	6.231496e+03	
3.686563e-02	6.220280e+03	
3.691333e-02	6.209064e+03	
3.696103e-02	6.197849e+03	
3.700873e-02	6.186632e+03	
3.705643e-02	6.175417e+03	
3.710413e-02	6.164201e+03	
3.715183e-02	6.152985e+03	
3.719953e-02	6.142112e+03	
3.724723e-02	6.131299e+03	
3.729493e-02	6.120487e+03	
3.734263e-02	6.109674e+03	
3.739034e-02	6.098861e+03	
3.743804e-02	6.088049e+03	
3.748574e-02	6.077236e+03	
3.753344e-02	6.066461e+03	
3.758114e-02	6.056048e+03	
3.762884e-02	6.045635e+03	
3.767654e-02	6.035222e+03	
3.772424e-02	6.024809e+03	
3.777194e-02	6.014396e+03	
3.781964e-02	6.003982e+03	
3.786734e-02	5.993570e+03	
3.791504e-02	5.983229e+03	
3.796274e-02	5.973207e+03	
3.801044e-02	5.963184e+03	
3.805814e-02	5.953160e+03	
3.810584e-02	5.943138e+03	
3.815354e-02	5.933114e+03	
3.820124e-02	5.923091e+03	
3.824895e-02	5.913068e+03	
3.829664e-02	5.903148e+03	
3.834434e-02	5.893513e+03	
3.839204e-02	5.883877e+03	
3.843974e-02	5.874242e+03	
3.848745e-02	5.864607e+03	
3.853514e-02	5.854972e+03	
3.858285e-02	5.845336e+03	
3.863055e-02	5.835700e+03	
3.867825e-02	5.826146e+03	
3.872595e-02	5.816885e+03	
3.877365e-02	5.807625e+03	
3.882135e-02	5.798365e+03	
3.886905e-02	5.789105e+03	
3.891675e-02	5.779846e+03	
3.896445e-02	5.770584e+03	
3.901215e-02	5.761325e+03	
3.905985e-02	5.752118e+03	
3.910755e-02	5.743226e+03	
3.915525e-02	5.734334e+03	
3.920295e-02	5.725442e+03	
